Index,Load (kN),Defor (mm)
0,0.108,0.0012
1,0.1156,0.0016
2,0.124,0.0016
3,0.132,0.0016
4,0.1392,0.0016
5,0.1472,0.0016
6,0.1552,0.002
7,0.1628,0.002
8,0.1704,0.002
9,0.178,0.002
10,0.186,0.0024
11,0.194,0.0024
12,0.202,0.0024
13,0.2096,0.0028
14,0.2176,0.0028
15,0.2256,0.0028
16,0.2332,0.0028
17,0.2412,0.0028
18,0.2484,0.0032
19,0.2564,0.0032
20,0.264,0.0032
21,0.2716,0.0032
22,0.2796,0.0032
23,0.2876,0.0032
24,0.296,0.0036
25,0.304,0.0036
26,0.312,0.0036
27,0.3192,0.004
28,0.328,0.004
29,0.3352,0.004
30,0.3432,0.004
31,0.3512,0.0044
32,0.3588,0.0044
33,0.3668,0.0044
34,0.3748,0.0044
35,0.3828,0.0044
36,0.39,0.0048
37,0.3984,0.0048
38,0.406,0.0048
39,0.414,0.0048
40,0.422,0.0048
41,0.4304,0.0052
42,0.4384,0.0052
43,0.4464,0.0052
44,0.4536,0.0056
45,0.462,0.0056
46,0.47,0.0056
47,0.4776,0.0056
48,0.4852,0.0056
49,0.4932,0.006
50,0.5012,0.006
51,0.5088,0.006
52,0.5172,0.006
53,0.5252,0.0064
54,0.5332,0.0064
55,0.5408,0.0064
56,0.5484,0.0068
57,0.5564,0.0068
58,0.5644,0.0068
59,0.5724,0.0068
60,0.5804,0.0068
61,0.5884,0.0072
62,0.5956,0.0072
63,0.6036,0.0072
64,0.6116,0.0072
65,0.6196,0.0076
66,0.6272,0.0076
67,0.6356,0.0076
68,0.6432,0.0076
69,0.6512,0.008
70,0.6584,0.008
71,0.6664,0.008
72,0.6748,0.008
73,0.6816,0.008
74,0.6896,0.0084
75,0.6976,0.0084
76,0.7056,0.0084
77,0.7132,0.0084
78,0.7204,0.0088
79,0.728,0.0088
80,0.7356,0.0088
81,0.7436,0.0088
82,0.7512,0.0092
83,0.7584,0.0092
84,0.7656,0.0092
85,0.7736,0.0096
86,0.7804,0.0096
87,0.7868,0.0096
88,0.7944,0.0096
89,0.8016,0.0096
90,0.8084,0.0096
91,0.8156,0.01
92,0.8232,0.01
93,0.83,0.01
94,0.8372,0.0104
95,0.8444,0.0104
96,0.8516,0.0104
97,0.858,0.0104
98,0.8656,0.0108
99,0.8724,0.0104
100,0.88,0.0108
101,0.8872,0.0108
102,0.894,0.0108
103,0.9008,0.0112
104,0.9084,0.0112
105,0.916,0.0112
106,0.9228,0.0112
107,0.93,0.0116
108,0.9372,0.0112
109,0.9444,0.0116
110,0.952,0.0116
111,0.958,0.0116
112,0.9656,0.012
113,0.9728,0.012
114,0.9796,0.012
115,0.9872,0.012
116,0.9936,0.0124
117,1.0012,0.0124
118,1.008,0.0124
119,1.0148,0.0124
120,1.022,0.0128
121,1.0292,0.0124
122,1.0356,0.0128
123,1.0436,0.0128
124,1.0504,0.0128
125,1.0572,0.0128
126,1.0644,0.0128
127,1.0712,0.0132
128,1.0788,0.0132
129,1.0856,0.0132
130,1.0924,0.0136
131,1.0996,0.0136
132,1.1064,0.0136
133,1.1136,0.0136
134,1.1204,0.0136
135,1.1272,0.014
136,1.1344,0.014
137,1.1408,0.014
138,1.148,0.014
139,1.1548,0.0144
140,1.1616,0.0144
141,1.1688,0.0144
142,1.1756,0.0144
143,1.1824,0.0148
144,1.1892,0.0148
145,1.1968,0.0148
146,1.204,0.0148
147,1.21,0.0148
148,1.2172,0.0148
149,1.224,0.0152
150,1.2308,0.0152
151,1.238,0.0156
152,1.2444,0.0156
153,1.2516,0.0156
154,1.2584,0.0156
155,1.2656,0.0156
156,1.2724,0.0156
157,1.2788,0.0156
158,1.2868,0.0156
159,1.2928,0.016
160,1.2996,0.016
161,1.3064,0.016
162,1.3136,0.0164
163,1.3204,0.0164
164,1.3264,0.0164
165,1.3332,0.0164
166,1.34,0.0168
167,1.3468,0.0168
168,1.3532,0.0168
169,1.3592,0.0168
170,1.3672,0.0168
171,1.3736,0.0172
172,1.3804,0.0172
173,1.3868,0.0172
174,1.3932,0.0172
175,1.4,0.0172
176,1.4068,0.0172
177,1.4132,0.0176
178,1.4204,0.0176
179,1.4268,0.0176
180,1.4328,0.0176
181,1.4392,0.018
182,1.4464,0.018
183,1.4528,0.018
184,1.4588,0.018
185,1.4656,0.0184
186,1.472,0.018
187,1.4796,0.0184
188,1.4864,0.0184
189,1.492,0.0184
190,1.4988,0.0188
191,1.5048,0.0184
192,1.5116,0.0188
193,1.518,0.0188
194,1.5244,0.0188
195,1.5312,0.0188
196,1.5372,0.0192
197,1.5436,0.0192
198,1.5504,0.0192
199,1.556,0.0192
200,1.5628,0.0196
201,1.57,0.0196
202,1.576,0.0196
203,1.5824,0.0196
204,1.5884,0.0196
205,1.5952,0.02
206,1.6016,0.02
207,1.6076,0.0196
208,1.6144,0.02
209,1.6208,0.02
210,1.628,0.0204
211,1.6344,0.02
212,1.6404,0.0204
213,1.646,0.0204
214,1.6528,0.0204
215,1.6592,0.0204
216,1.666,0.0208
217,1.6728,0.0208
218,1.6796,0.0208
219,1.6852,0.0208
220,1.692,0.0212
221,1.698,0.0212
222,1.7044,0.0212
223,1.71,0.0212
224,1.7164,0.0212
225,1.7232,0.0216
226,1.7292,0.0216
227,1.7352,0.0216
228,1.7416,0.0216
229,1.748,0.0216
230,1.7552,0.022
231,1.7616,0.022
232,1.7676,0.022
233,1.774,0.022
234,1.7804,0.0224
235,1.7868,0.0224
236,1.7928,0.0224
237,1.7988,0.0224
238,1.8052,0.0228
239,1.812,0.0228
240,1.8176,0.0228
241,1.883,0.0236
242,1.889,0.0236
243,1.895,0.0236
244,1.901,0.0236
245,1.907,0.0236
246,1.913,0.024
247,1.919,0.024
248,1.925,0.024
249,1.931,0.024
250,1.937,0.0244
251,1.943,0.0244
252,1.949,0.0244
253,1.955,0.0244
254,1.961,0.0244
255,1.966,0.0244
256,1.972,0.0244
257,1.977,0.0248
258,1.983,0.0248
259,1.989,0.0248
260,1.995,0.0248
261,2.001,0.0248
262,2.007,0.0252
263,2.012,0.0252
264,2.018,0.0252
265,2.024,0.0252
266,2.03,0.0252
267,2.036,0.0256
268,2.041,0.0256
269,2.047,0.0256
270,2.053,0.0256
271,2.059,0.0256
272,2.065,0.0256
273,2.07,0.026
274,2.076,0.026
275,2.082,0.026
276,2.087,0.026
277,2.093,0.026
278,2.098,0.026
279,2.103,0.0264
280,2.108,0.0264
281,2.114,0.0264
282,2.12,0.0264
283,2.125,0.0268
284,2.131,0.0268
285,2.136,0.0268
286,2.141,0.0268
287,2.147,0.0268
288,2.152,0.0268
289,2.157,0.0272
290,2.163,0.0272
291,2.168,0.0272
292,2.174,0.0272
293,2.18,0.0272
294,2.185,0.0276
295,2.189,0.0276
296,2.194,0.0276
297,2.2,0.0276
298,2.205,0.0276
299,2.21,0.028
300,2.215,0.0276
301,2.221,0.028
302,2.227,0.028
303,2.231,0.028
304,2.236,0.028
305,2.242,0.028
306,2.247,0.0284
307,2.252,0.0284
308,2.257,0.0284
309,2.262,0.0284
310,2.268,0.0284
311,2.273,0.0284
312,2.278,0.0288
313,2.283,0.0288
314,2.288,0.0288
315,2.293,0.0288
316,2.298,0.0288
317,2.303,0.0288
318,2.307,0.0288
319,2.313,0.0292
320,2.318,0.0292
321,2.323,0.0292
322,2.328,0.0292
323,2.333,0.0292
324,2.338,0.0292
325,2.343,0.0292
326,2.348,0.0292
327,2.353,0.0296
328,2.357,0.0296
329,2.362,0.0296
330,2.367,0.0296
331,2.372,0.03
332,2.376,0.03
333,2.381,0.0296
334,2.386,0.03
335,2.39,0.03
336,2.394,0.03
337,2.399,0.0304
338,2.403,0.0304
339,2.408,0.0304
340,2.413,0.0304
341,2.417,0.0304
342,2.421,0.0304
343,2.426,0.0304
344,2.431,0.0304
345,2.435,0.0304
346,2.441,0.0308
347,2.445,0.0308
348,2.449,0.0308
349,2.454,0.0308
350,2.458,0.0308
351,2.463,0.0308
352,2.466,0.0312
353,2.471,0.0312
354,2.476,0.0312
355,2.48,0.0312
356,2.484,0.0316
357,2.489,0.0316
358,2.493,0.0316
359,2.498,0.0316
360,2.502,0.0316
361,2.507,0.0316
362,2.511,0.0316
363,2.515,0.0316
364,2.52,0.0316
365,2.524,0.0316
366,2.528,0.032
367,2.532,0.032
368,2.537,0.032
369,2.541,0.0324
370,2.546,0.032
371,2.55,0.0324
372,2.553,0.0324
373,2.557,0.0324
374,2.562,0.0324
375,2.566,0.0324
376,2.571,0.0324
377,2.574,0.0324
378,2.579,0.0328
379,2.584,0.0328
380,2.588,0.0328
381,2.592,0.0328
382,2.596,0.0328
383,2.6,0.0328
384,2.604,0.0328
385,2.609,0.0328
386,2.613,0.0328
387,2.618,0.0328
388,2.621,0.0332
389,2.625,0.0332
390,2.629,0.0332
391,2.633,0.0336
392,2.637,0.0332
393,2.64,0.0332
394,2.644,0.0332
395,2.648,0.0336
396,2.652,0.0336
397,2.656,0.0336
398,2.66,0.0336
399,2.664,0.0336
400,2.668,0.0336
401,2.672,0.0336
402,2.676,0.034
403,2.68,0.034
404,2.683,0.034
405,2.687,0.034
406,2.691,0.034
407,2.695,0.034
408,2.699,0.034
409,2.703,0.0344
410,2.708,0.0344
411,2.711,0.0344
412,2.715,0.0344
413,2.719,0.0344
414,2.723,0.0344
415,2.727,0.0344
416,2.731,0.0344
417,2.735,0.0348
418,2.738,0.0344
419,2.742,0.0344
420,2.746,0.0348
421,2.75,0.0348
422,2.754,0.0348
423,2.757,0.0348
424,2.761,0.0352
425,2.764,0.0348
426,2.768,0.0348
427,2.773,0.0352
428,2.777,0.0352
429,2.781,0.0352
430,2.784,0.0352
431,2.788,0.0352
432,2.792,0.0352
433,2.795,0.0356
434,2.799,0.0352
435,2.802,0.0352
436,2.806,0.0356
437,2.81,0.0356
438,2.814,0.0356
439,2.817,0.0356
440,2.821,0.0356
441,2.824,0.0356
442,2.828,0.036
443,2.832,0.036
444,2.835,0.036
445,2.839,0.036
446,2.842,0.036
447,2.846,0.036
448,2.85,0.0364
449,2.853,0.036
450,2.856,0.036
451,2.86,0.036
452,2.863,0.0364
453,2.866,0.0364
454,2.87,0.0364
455,2.873,0.0364
456,2.876,0.0364
457,2.88,0.0364
458,2.883,0.0364
459,2.887,0.0364
460,2.89,0.0368
461,2.893,0.0368
462,2.896,0.0368
463,2.9,0.0368
464,2.904,0.0368
465,2.906,0.0364
466,2.91,0.0368
467,2.913,0.0368
468,2.916,0.0372
469,2.92,0.0368
470,2.923,0.0372
471,2.926,0.0372
472,2.93,0.0372
473,2.932,0.0372
474,2.935,0.0372
475,2.939,0.0372
476,2.942,0.0372
477,2.945,0.0372
478,2.949,0.0376
479,2.952,0.0372
480,2.955,0.0376
481,2.958,0.0376
482,2.962,0.0376
483,2.965,0.0376
484,2.968,0.0376
485,2.971,0.0376
486,2.974,0.0376
487,2.976,0.0376
488,2.98,0.0376
489,2.982,0.0376
490,2.986,0.0376
491,2.989,0.038
492,2.992,0.038
493,2.995,0.038
494,2.999,0.038
495,3.002,0.038
496,3.004,0.038
497,3.008,0.0384
498,3.01,0.0384
499,3.014,0.0384
500,3.017,0.0384
501,3.02,0.0384
502,3.023,0.0384
503,3.026,0.0384
504,3.028,0.0384
505,3.032,0.0384
506,3.035,0.0384
507,3.037,0.0384
508,3.04,0.0384
509,3.043,0.0388
510,3.047,0.0388
511,3.05,0.0384
512,3.052,0.0388
513,3.055,0.0388
514,3.058,0.0388
515,3.062,0.0388
516,3.064,0.0388
517,3.067,0.0388
518,3.07,0.0388
519,3.073,0.0388
520,3.076,0.0388
521,3.078,0.0388
522,3.082,0.0392
523,3.085,0.0392
524,3.089,0.0392
525,3.091,0.0392
526,3.094,0.0392
527,3.096,0.0392
528,3.1,0.0396
529,3.102,0.0396
530,3.105,0.0392
531,3.108,0.0396
532,3.111,0.0396
533,3.114,0.0396
534,3.117,0.0392
535,3.12,0.0396
536,3.123,0.0396
537,3.126,0.0396
538,3.129,0.0396
539,3.131,0.0396
540,3.134,0.0396
541,3.138,0.04
542,3.14,0.04
543,3.143,0.04
544,3.146,0.0396
545,3.148,0.04
546,3.151,0.04
547,3.154,0.04
548,3.157,0.0404
549,3.16,0.0404
550,3.163,0.04
551,3.166,0.0404
552,3.168,0.0404
553,3.171,0.0404
554,3.174,0.0404
555,3.177,0.0404
556,3.18,0.0404
557,3.183,0.0404
558,3.185,0.0404
559,3.188,0.0404
560,3.191,0.0404
561,3.194,0.0408
562,3.196,0.0408
563,3.199,0.0408
564,3.201,0.0408
565,3.204,0.0408
566,3.206,0.0412
567,3.209,0.0408
568,3.213,0.0412
569,3.215,0.0412
570,3.217,0.0412
571,3.22,0.0412
572,3.223,0.0412
573,3.225,0.0412
574,3.228,0.0412
575,3.231,0.0412
576,3.233,0.0412
577,3.236,0.0412
578,3.239,0.0412
579,3.241,0.0412
580,3.244,0.0412
581,3.246,0.0416
582,3.249,0.0416
583,3.252,0.0416
584,3.255,0.0416
585,3.258,0.0416
586,3.26,0.0416
587,3.263,0.0416
588,3.266,0.0416
589,3.268,0.0416
590,3.27,0.0416
591,3.273,0.0416
592,3.276,0.0416
593,3.279,0.042
594,3.281,0.042
595,3.284,0.042
596,3.286,0.042
597,3.289,0.042
598,3.291,0.042
599,3.294,0.042
600,3.297,0.042
601,3.299,0.042
602,3.301,0.042
603,3.304,0.0424
604,3.306,0.042
605,3.309,0.042
606,3.31,0.042
607,3.313,0.0424
608,3.316,0.0424
609,3.319,0.0424
610,3.322,0.0424
611,3.324,0.0424
612,3.327,0.0424
613,3.329,0.0424
614,3.332,0.0424
615,3.334,0.0424
616,3.337,0.0424
617,3.34,0.0424
618,3.342,0.0424
619,3.345,0.0428
620,3.347,0.0428
621,3.35,0.0428
622,3.352,0.0428
623,3.355,0.0428
624,3.357,0.0428
625,3.36,0.0428
626,3.362,0.0428
627,3.365,0.0432
628,3.367,0.0432
629,3.37,0.0432
630,3.374,0.0432
631,3.375,0.0432
632,3.378,0.0432
633,3.381,0.0432
634,3.382,0.0432
635,3.386,0.0432
636,3.388,0.0432
637,3.391,0.0432
638,3.393,0.0432
639,3.396,0.0432
640,3.398,0.0432
641,3.4,0.0436
642,3.403,0.0436
643,3.405,0.0436
644,3.408,0.0436
645,3.41,0.0436
646,3.413,0.0436
647,3.416,0.0436
648,3.418,0.044
649,3.42,0.0436
650,3.422,0.0436
651,3.425,0.044
652,3.427,0.0436
653,3.43,0.0436
654,3.432,0.044
655,3.435,0.044
656,3.438,0.044
657,3.44,0.044
658,3.443,0.044
659,3.445,0.044
660,3.447,0.044
661,3.449,0.0444
662,3.452,0.044
663,3.454,0.044
664,3.456,0.044
665,3.459,0.0444
666,3.462,0.044
667,3.465,0.0444
668,3.467,0.0444
669,3.469,0.0444
670,3.471,0.0444
671,3.473,0.0448
672,3.476,0.0444
673,3.479,0.0444
674,3.481,0.0444
675,3.483,0.0444
676,3.486,0.0444
677,3.489,0.0448
678,3.491,0.0448
679,3.493,0.0448
680,3.496,0.0448
681,3.499,0.0448
682,3.5,0.0448
683,3.502,0.0448
684,3.505,0.0448
685,3.508,0.0448
686,3.509,0.0448
687,3.511,0.0448
688,3.514,0.0448
689,3.516,0.0452
690,3.519,0.0452
691,3.522,0.0452
692,3.524,0.0452
693,3.526,0.0452
694,3.528,0.0452
695,3.531,0.0452
696,3.533,0.0452
697,3.536,0.0452
698,3.539,0.0452
699,3.541,0.0452
700,3.544,0.0456
701,3.546,0.0452
702,3.549,0.0456
703,3.551,0.0456
704,3.553,0.0456
705,3.555,0.0456
706,3.558,0.0456
707,3.561,0.0456
708,3.564,0.0456
709,3.565,0.0456
710,3.568,0.0456
711,3.57,0.0456
712,3.573,0.0456
713,3.575,0.0456
714,3.578,0.046
715,3.58,0.046
716,3.583,0.046
717,3.585,0.046
718,3.587,0.046
719,3.589,0.046
720,3.592,0.046
721,3.594,0.046
722,3.597,0.046
723,3.599,0.0464
724,3.601,0.0464
725,3.603,0.0464
726,3.606,0.0464
727,3.608,0.0464
728,3.611,0.0464
729,3.613,0.0464
730,3.616,0.0464
731,3.619,0.0464
732,3.621,0.0464
733,3.623,0.0464
734,3.625,0.0468
735,3.627,0.0468
736,3.63,0.0468
737,3.631,0.0468
738,3.634,0.0468
739,3.638,0.0468
740,3.64,0.0468
741,3.642,0.0468
742,3.645,0.0468
743,3.647,0.0468
744,3.65,0.0472
745,3.652,0.0468
746,3.654,0.0472
747,3.657,0.0472
748,3.659,0.0472
749,3.662,0.0472
750,3.664,0.0472
751,3.667,0.0472
752,3.669,0.0476
753,3.671,0.0472
754,3.673,0.0472
755,3.675,0.0472
756,3.678,0.0472
757,3.681,0.0472
758,3.683,0.0472
759,3.686,0.0476
760,3.688,0.0472
761,3.691,0.0476
762,3.694,0.0476
763,3.696,0.0476
764,3.699,0.0476
765,3.701,0.0476
766,3.704,0.0476
767,3.706,0.0476
768,3.708,0.0476
769,3.71,0.0476
770,3.713,0.048
771,3.715,0.048
772,3.717,0.048
773,3.72,0.048
774,3.723,0.048
775,3.725,0.048
776,3.727,0.048
777,3.729,0.048
778,3.732,0.048
779,3.734,0.0484
780,3.737,0.0484
781,3.739,0.0484
782,3.741,0.0484
783,3.744,0.0484
784,3.746,0.0484
785,3.749,0.0484
786,3.752,0.0484
787,3.754,0.0484
788,3.756,0.0484
789,3.759,0.0484
790,3.761,0.0484
791,3.764,0.0484
792,3.766,0.0484
793,3.768,0.0484
794,3.771,0.0488
795,3.774,0.0488
796,3.775,0.0488
797,3.778,0.0488
798,3.78,0.0488
799,3.782,0.0488
800,3.784,0.0488
801,3.786,0.0488
802,3.789,0.0488
803,3.792,0.0488
804,3.794,0.0488
805,3.797,0.0488
806,3.799,0.0488
807,3.802,0.0492
808,3.804,0.0492
809,3.806,0.0492
810,3.808,0.0492
811,3.811,0.0492
812,3.813,0.0492
813,3.816,0.0492
814,3.818,0.0492
815,3.82,0.0492
816,3.823,0.0492
817,3.825,0.0492
818,3.828,0.0492
819,3.829,0.0496
820,3.832,0.0496
821,3.834,0.0496
822,3.837,0.0496
823,3.839,0.0496
824,3.842,0.0496
825,3.844,0.0496
826,3.846,0.0496
827,3.848,0.05
828,3.851,0.05
829,3.853,0.05
830,3.855,0.05
831,3.858,0.05
832,3.86,0.05
833,3.863,0.05
834,3.865,0.05
835,3.867,0.05
836,3.869,0.05
837,3.871,0.05
838,3.874,0.05
839,3.876,0.05
840,3.878,0.05
841,3.881,0.05
842,3.883,0.0504
843,3.885,0.05
844,3.888,0.0504
845,3.89,0.0504
846,3.892,0.0504
847,3.894,0.0504
848,3.897,0.0504
849,3.899,0.0504
850,3.902,0.0508
851,3.904,0.0508
852,3.906,0.0504
853,3.908,0.0504
854,3.912,0.0504
855,3.913,0.0508
856,3.915,0.0508
857,3.918,0.0508
858,3.92,0.0508
859,3.922,0.0508
860,3.925,0.0508
861,3.927,0.0508
862,3.93,0.0508
863,3.932,0.0508
864,3.935,0.0508
865,3.938,0.0508
866,3.94,0.0512
867,3.942,0.0512
868,3.944,0.0512
869,3.946,0.0512
870,3.949,0.0512
871,3.951,0.0512
872,3.954,0.0512
873,3.955,0.0512
874,3.958,0.0512
875,3.96,0.0512
876,3.962,0.0512
877,3.964,0.0512
878,3.967,0.0512
879,3.969,0.0516
880,3.971,0.0516
881,3.974,0.0512
882,3.977,0.0512
883,3.978,0.0512
884,3.981,0.0512
885,3.983,0.0516
886,3.986,0.0516
887,3.988,0.0516
888,3.991,0.0516
889,3.993,0.0516
890,3.995,0.0516
891,3.997,0.0516
892,3.999,0.0516
893,4.002,0.052
894,4.005,0.052
895,4.006,0.052
896,4.009,0.052
897,4.011,0.052
898,4.014,0.052
899,4.016,0.052
900,4.018,0.052
901,4.02,0.052
902,4.022,0.052
903,4.024,0.052
904,4.027,0.052
905,4.029,0.052
906,4.031,0.052
907,4.033,0.052
908,4.036,0.0524
909,4.039,0.052
910,4.041,0.0524
911,4.043,0.0524
912,4.045,0.0524
913,4.048,0.0524
914,4.049,0.0524
915,4.052,0.0524
916,4.054,0.0524
917,4.057,0.0524
918,4.06,0.0528
919,4.062,0.0528
920,4.064,0.0528
921,4.066,0.0528
922,4.07,0.0528
923,4.072,0.0528
924,4.074,0.0528
925,4.077,0.0528
926,4.079,0.0528
927,4.082,0.0528
928,4.084,0.0528
929,4.086,0.0528
930,4.087,0.0528
931,4.09,0.0532
932,4.093,0.0532
933,4.095,0.0532
934,4.098,0.0532
935,4.099,0.0528
936,4.102,0.0532
937,4.104,0.0532
938,4.106,0.0532
939,4.108,0.0532
940,4.111,0.0536
941,4.113,0.0532
942,4.116,0.0536
943,4.118,0.0536
944,4.12,0.0536
945,4.122,0.0532
946,4.125,0.0536
947,4.127,0.0536
948,4.13,0.0536
949,4.132,0.0536
950,4.134,0.0536
951,4.136,0.0536
952,4.138,0.0536
953,4.141,0.0536
954,4.142,0.054
955,4.145,0.054
956,4.148,0.054
957,4.15,0.054
958,4.152,0.054
959,4.155,0.0536
960,4.157,0.054
961,4.159,0.054
962,4.162,0.054
963,4.164,0.054
964,4.166,0.054
965,4.168,0.054
966,4.17,0.054
967,4.173,0.054
968,4.175,0.054
969,4.178,0.0544
970,4.18,0.054
971,4.183,0.0544
972,4.185,0.0544
973,4.187,0.0544
974,4.19,0.0544
975,4.192,0.0544
976,4.194,0.0544
977,4.197,0.0544
978,4.199,0.0544
979,4.201,0.0544
980,4.203,0.0544
981,4.205,0.0544
982,4.207,0.0548
983,4.21,0.0548
984,4.212,0.0548
985,4.214,0.0548
986,4.216,0.0548
987,4.219,0.0548
988,4.221,0.0548
989,4.224,0.0548
990,4.226,0.0548
991,4.228,0.0548
992,4.231,0.0548
993,4.233,0.0548
994,4.235,0.0552
995,4.238,0.0552
996,4.24,0.0552
997,4.242,0.0552
998,4.244,0.0548
999,4.247,0.0552
1000,4.249,0.0552
1001,4.251,0.0552
1002,4.254,0.0552
1003,4.255,0.0552
1004,4.258,0.0552
1005,4.26,0.0552
1006,4.263,0.0556
1007,4.265,0.0552
1008,4.267,0.0552
1009,4.269,0.0552
1010,4.272,0.0556
1011,4.275,0.0556
1012,4.278,0.0556
1013,4.28,0.0556
1014,4.282,0.0556
1015,4.284,0.0556
1016,4.287,0.0556
1017,4.289,0.0556
1018,4.291,0.0556
1019,4.294,0.0556
1020,4.296,0.056
1021,4.299,0.056
1022,4.301,0.056
1023,4.303,0.056
1024,4.305,0.056
1025,4.308,0.056
1026,4.31,0.056
1027,4.313,0.056
1028,4.315,0.056
1029,4.317,0.056
1030,4.319,0.0564
1031,4.321,0.0564
1032,4.323,0.0564
1033,4.326,0.056
1034,4.329,0.056
1035,4.33,0.0564
1036,4.333,0.0564
1037,4.335,0.0564
1038,4.338,0.0564
1039,4.34,0.056
1040,4.342,0.0564
1041,4.345,0.0564
1042,4.347,0.0564
1043,4.35,0.0564
1044,4.352,0.0564
1045,4.354,0.0568
1046,4.356,0.0568
1047,4.358,0.0568
1048,4.361,0.0568
1049,4.363,0.0568
1050,4.366,0.0568
1051,4.369,0.0568
1052,4.371,0.0568
1053,4.373,0.0568
1054,4.376,0.0568
1055,4.378,0.0568
1056,4.381,0.0568
1057,4.383,0.0568
1058,4.385,0.0568
1059,4.388,0.0568
1060,4.391,0.0572
1061,4.393,0.0572
1062,4.396,0.0572
1063,4.398,0.0572
1064,4.4,0.0572
1065,4.401,0.0572
1066,4.403,0.0572
1067,4.405,0.0572
1068,4.407,0.0572
1069,4.41,0.0572
1070,4.412,0.0572
1071,4.414,0.0576
1072,4.417,0.0572
1073,4.419,0.0572
1074,4.421,0.0572
1075,4.424,0.0572
1076,4.426,0.0576
1077,4.429,0.0576
1078,4.431,0.0576
1079,4.433,0.0576
1080,4.436,0.0576
1081,4.438,0.058
1082,4.441,0.0576
1083,4.443,0.0576
1084,4.445,0.0576
1085,4.448,0.0576
1086,4.451,0.058
1087,4.453,0.058
1088,4.455,0.058
1089,4.457,0.058
1090,4.459,0.058
1091,4.462,0.058
1092,4.465,0.058
1093,4.467,0.058
1094,4.469,0.0584
1095,4.472,0.058
1096,4.474,0.0584
1097,4.476,0.0584
1098,4.479,0.0584
1099,4.481,0.0584
1100,4.483,0.0584
1101,4.486,0.0584
1102,4.489,0.0584
1103,4.491,0.0584
1104,4.494,0.0588
1105,4.496,0.0584
1106,4.498,0.0584
1107,4.5,0.0588
1108,4.503,0.0584
1109,4.558,0.0592
1110,4.56,0.0592
1111,4.562,0.0588
1112,4.566,0.0592
1113,4.568,0.0588
1114,4.568,0.0588
1115,4.572,0.0592
1116,4.574,0.0592
1117,4.576,0.0592
1118,4.578,0.0592
1119,4.58,0.0592
1120,4.584,0.0596
1121,4.586,0.0596
1122,4.588,0.0596
1123,4.59,0.0596
1124,4.594,0.0596
1125,4.594,0.0596
1126,4.598,0.0596
1127,4.6,0.0596
1128,4.602,0.0596
1129,4.604,0.0596
1130,4.606,0.0596
1131,4.61,0.0596
1132,4.612,0.0596
1133,4.614,0.0596
1134,4.616,0.06
1135,4.618,0.0596
1136,4.62,0.06
1137,4.624,0.06
1138,4.626,0.06
1139,4.628,0.06
1140,4.63,0.06
1141,4.634,0.06
1142,4.636,0.06
1143,4.638,0.0604
1144,4.64,0.06
1145,4.642,0.06
1146,4.646,0.0604
1147,4.648,0.06
1148,4.65,0.06
1149,4.652,0.0604
1150,4.654,0.0604
1151,4.656,0.0604
1152,4.66,0.06
1153,4.66,0.0604
1154,4.664,0.06
1155,4.666,0.0604
1156,4.668,0.0604
1157,4.67,0.0604
1158,4.672,0.0604
1159,4.676,0.0604
1160,4.678,0.0604
1161,4.68,0.0608
1162,4.682,0.0608
1163,4.686,0.0608
1164,4.688,0.0608
1165,4.69,0.0608
1166,4.692,0.0608
1167,4.696,0.0608
1168,4.698,0.0608
1169,4.7,0.0608
1170,4.702,0.0608
1171,4.706,0.0608
1172,4.708,0.0608
1173,4.71,0.0608
1174,4.712,0.0608
1175,4.714,0.0608
1176,4.716,0.0612
1177,4.718,0.0608
1178,4.722,0.0608
1179,4.724,0.0612
1180,4.726,0.0612
1181,4.728,0.0612
1182,4.73,0.0612
